time,mass,momentum,energy,L1 norm,L2 norm,entropy,minimum
0.0,1.0,-8.907830669118308e-19,0.25994245944130256,1.0,0.26726474998677996,2.8455936852110275,2.1634840196138853e-7
0.010099999999999994,0.9999999999751351,7.741852550542335e-16,0.2599424592881412,0.9999999999751351,0.26726475652629766,2.845593627750495,2.163317925437934e-7
0.020199999999999933,0.9999999998997291,1.5203180494448255e-15,0.25994245882631556,0.9999999998997291,0.26726476306559843,2.8455935696006094,2.1626214181055536e-7
0.030299999999999872,0.9999999997739143,2.296256768578994e-15,0.25994245805738453,0.9999999997739143,0.26726476960446954,2.845593510764689,2.161207538350013e-7
0.04030000000000013,0.999999999599863,3.0195593780631223e-15,0.25994245699546586,0.999999999599863,0.26726477607796234,2.845593451839605,2.1595109659266075e-7
0.050300000000000414,0.9999999993768272,3.757105270071805e-15,0.259942455636811,0.9999999993768272,0.26726478255061137,2.845593392251275,2.157513532215575e-7
0.0603000000000007,0.9999999991051017,4.481644547658925e-15,0.25994245398419474,0.9999999991051017,0.26726478902220074,2.8455933320056883,2.1546336173527276e-7
0.07030000000000099,0.9999999987850673,5.155339825554158e-15,0.2599424520408125,0.9999999987850673,0.26726479549251997,2.8455932711098004,2.1514370954138626e-7
0.08030000000000127,0.9999999984171781,5.9637421411830316e-15,0.25994244981027154,0.9999999984171781,0.267264801961359,2.8455932095715055,2.147954801070784e-7
0.09030000000000156,0.9999999980019554,6.7221635836932705e-15,0.25994244729658716,0.9999999980019554,0.2672648084285102,2.845593147399603,2.1439319049691744e-7
0.10030000000000185,0.9999999975399627,7.549066792956072e-15,0.2599424445041693,0.9999999975399627,0.2672648148937603,2.84559308460375,2.1393031141767263e-7
0.11030000000000213,0.9999999970318607,8.432214683982454e-15,0.2599424414378303,0.9999999970318607,0.26726482135690294,2.8455930211945506,2.1344115365395384e-7
0.12030000000000242,0.9999999964783407,9.149393245257934e-15,0.25994243810276324,0.9999999964783407,0.2672648278177254,2.845592957183416,2.1292641458093006e-7
0.13040000000000196,0.9999999958739785,1.004934965808963e-14,0.25994243446725657,0.9999999958739785,0.2672648343405893,2.8455928919337223,2.1233445598490205e-7
0.14050000000000085,0.9999999952249683,1.0687328097697991e-14,0.2599424305694522,0.9999999952249683,0.26726484086066443,2.8455928260961563,2.11708706270411e-7
0.15059999999999973,0.9999999945322068,1.1525064011323229e-14,0.2599424264158564,0.9999999945322068,0.26726484737772843,2.8455927596850503,2.1106123301999886e-7
0.16069999999999862,0.9999999937967025,1.2291708449685412e-14,0.25994242201335604,0.9999999937967025,0.26726485389156796,2.845592692715679,2.103824490002625e-7
0.1707999999999975,0.9999999930194711,1.3022858819425852e-14,0.2599424173691852,0.9999999930194711,0.26726486040195613,2.8455926252040094,2.0963824404683219e-7
0.1808999999999964,0.9999999922016387,1.3646580000466028e-14,0.25994241249093847,0.9999999922016387,0.26726486690867396,2.8455925571668943,2.08876040948951e-7
0.19099999999999528,0.9999999913443518,1.4465916664411008e-14,0.25994240738653984,0.9999999913443518,0.26726487341149074,2.8455924886218655,2.0809682305678388e-7
0.20109999999999417,0.9999999904488222,1.5081777379700664e-14,0.2599424020642397,0.9999999904488222,0.2672648799101714,2.8455924195872284,2.0728405323927288e-7
0.21119999999999306,0.9999999895163583,1.5639711205793494e-14,0.25994239653261425,0.9999999895163583,0.2672648864044857,2.845592350082051,2.0642220970995547e-7
0.22129999999999195,0.9999999885482246,1.6429006999231152e-14,0.25994239080051385,0.9999999885482246,0.2672648928941698,2.845592280125905,2.0554754737207318e-7
0.23139999999999084,0.999999987545809,1.7005248595445936e-14,0.25994238487709626,0.999999987545809,0.26726489937896936,2.8455922097391397,2.0466112779501887e-7
0.24149999999998972,0.999999986510528,1.751092218275907e-14,0.2599423787717864,0.999999986510528,0.2672649058586113,2.8455921389426857,2.0375595545968402e-7
0.2515999999999886,0.9999999854438548,1.8349022320551626e-14,0.2599423724942716,0.9999999854438548,0.26726491233281063,2.8455920677580777,2.0280217247791167e-7
0.2616999999999875,0.9999999843472834,1.9047494159186995e-14,0.2599423660544772,0.9999999843472834,0.2672649188012593,2.8455919962073453,2.0184095465670142e-7
0.2717999999999864,0.9999999832223445,1.9810511602469036e-14,0.2599423594625576,0.9999999832223445,0.26726492526362955,2.8455919243130454,2.0087332957440722e-7
0.2818999999999853,0.9999999820706204,2.0436323260823036e-14,0.259942352728883,0.9999999820706204,0.2672649317195713,2.8455918520982366,1.9990030811610814e-7
0.29199999999998416,0.9999999808937272,2.114686193082499e-14,0.2599423458640227,0.9999999808937272,0.2672649381687104,2.845591779586409,1.9890026746258225e-7
0.30209999999998305,0.9999999796933071,2.1547030788294022e-14,0.259942338878725,0.9999999796933071,0.26726494461064004,2.845591706801457,1.9787854072727222e-7
0.31219999999998194,0.9999999784710394,2.2304617056318268e-14,0.259942331783906,0.9999999784710394,0.2672649510449237,2.8455916337676492,1.9685552161679516e-7
0.3222999999999808,0.9999999772286302,2.3149363014614982e-14,0.25994232459062966,0.9999999772286302,0.267264957471087,2.845591560509601,1.9583213127241035e-7
0.3323999999999797,0.9999999759677893,2.386033536548593e-14,0.2599423173100875,0.9999999759677893,0.26726496388861265,2.8455914870521695,1.9480927218214402e-7
0.3424999999999786,0.9999999746903037,2.4132388795616855e-14,0.25994230995359957,0.9999999746903037,0.2672649702969532,2.8455914134205837,1.937811961323655e-7
0.3525999999999775,0.999999973397869,2.4913082122442198e-14,0.25994230253255524,0.999999973397869,0.2672649766954882,2.845591339640072,1.9272778677925694e-7
0.3626999999999764,0.9999999720923158,2.5357422054044648e-14,0.2599422950584547,0.9999999720923158,0.26726498308357727,2.8455912657362785,1.9167892230975745e-7
0.37279999999997526,0.9999999707754229,2.6227091109781372e-14,0.25994228754284465,0.9999999707754229,0.26726498946051186,2.8455911917348535,1.906355600672739e-7
0.38289999999997415,0.9999999694490385,2.7584464795888178e-14,0.2599422799973305,0.9999999694490385,0.26726499582554064,2.845591117661674,1.8959870512761596e-7
0.39299999999997304,0.9999999681149553,2.855422942906784e-14,0.2599422724335301,0.9999999681149553,0.2672650021778407,2.8455910435425493,1.885694302241181e-7
0.4030999999999719,0.999999966774988,2.9610974181535146e-14,0.2599422648630755,0.999999966774988,0.26726500851653306,2.845590969403347,1.875488974070207e-7
0.4131999999999708,0.9999999654309584,2.9641009969844784e-14,0.2599422572975917,0.9999999654309584,0.26726501484067705,2.845590895269928,1.8652923717719146e-7
0.4232999999999697,0.9999999640846798,3.0488832351805925e-14,0.25994224974867647,0.9999999640846798,0.26726502114926715,2.8455908211680914,1.855065462057518e-7
0.4333999999999686,0.9999999627380053,3.1067345690385245e-14,0.25994224222789597,0.9999999627380053,0.2672650274412452,2.845590747123615,1.8449854158891042e-7
0.4434999999999675,0.9999999613927035,3.169876131871828e-14,0.2599422347467359,0.9999999613927035,0.26726503371546895,2.845590673162005,1.8350702016326393e-7
0.45359999999996636,0.9999999600506017,3.2171320999991454e-14,0.25994222731662076,0.9999999600506017,0.2672650399707476,2.8455905993087343,1.8253396688119087e-7
0.46369999999996525,0.9999999587134679,3.2814086869817696e-14,0.25994221994886835,0.9999999587134679,0.26726504620581615,2.8455905255889835,1.8158156342278558e-7
0.47379999999996414,0.9999999573831051,3.2994189791326484e-14,0.2599422126546965,0.9999999573831051,0.2672650524193603,2.845590452027794,1.8065219021162755e-7
0.483899999999963,0.9999999560612335,3.310366371756142e-14,0.2599422054451784,0.9999999560612335,0.2672650586099912,2.8455903786498076,1.7974842041278686e-7
0.4939999999999619,0.9999999547496226,3.455068737080562e-14,0.25994219833125815,0.9999999547496226,0.26726506477628076,2.845590305479509,1.7887300456220788e-7
0.5040999999999608,0.9999999534499878,3.53487685899722e-14,0.2599421913237109,0.9999999534499878,0.267265070916742,2.8455902325409936,1.7802884461584235e-7
0.5141999999999597,0.9999999521639914,3.5421931907824236e-14,0.2599421844331261,0.9999999521639914,0.26726507702983415,2.8455901598579505,1.7721895640761152e-7
0.5242999999999586,0.9999999508933184,3.6657769918527205e-14,0.2599421776699128,0.9999999508933184,0.26726508311398967,2.845590087453784,1.7644641978287412e-7
0.5343999999999575,0.9999999496395859,3.723417245100197e-14,0.25994217104426115,0.9999999496395859,0.26726508916759734,2.8455900153514317,1.757143160087021e-7
0.5444999999999564,0.9999999484043878,3.75421942882051e-14,0.2599421645661404,0.9999999484043878,0.26726509518902297,2.845589943573432,1.7502565246264532e-7
0.5545999999999552,0.999999947189297,3.75088144138197e-14,0.25994215824528333,0.999999947189297,0.26726510117661717,2.8455898721419284,1.7438327505080006e-7
0.5646999999999541,0.9999999459958444,3.750538223631743e-14,0.2599421520911705,0.9999999459958444,0.2672651071287238,2.845589801078614,1.7378976929302849e-7
0.574799999999953,0.9999999448254987,3.820671196411683e-14,0.2599421461130088,0.9999999448254987,0.26726511304368256,2.8455897304046958,1.7324735152520836e-7
0.5848999999999519,0.9999999436797242,3.920574327969002e-14,0.25994214031973567,0.9999999436797242,0.2672651189198559,2.8455896601410196,1.7275775219078035e-7
0.5949999999999508,0.9999999425598922,3.9917633814275794e-14,0.25994213471998245,0.9999999425598922,0.2672651247556196,2.845589590307901,1.7231621532139194e-7
0.6050999999999497,0.9999999414673563,3.9965416636896303e-14,0.259942129322084,0.9999999414673563,0.267265130549395,2.845589520925294,1.7192457804545592e-7
0.6151999999999486,0.9999999404034362,4.071339077503511e-14,0.2599421241340612,0.9999999404034362,0.2672651362996559,2.845589452012786,1.7158380610530787e-7
0.6252999999999475,0.9999999393693775,4.13246436310917e-14,0.25994211916360127,0.9999999393693775,0.26726514200493645,2.84558938358954,1.7129173255685249e-7
0.6353999999999463,0.9999999383663719,4.193249480283212e-14,0.2599421144180527,0.9999999383663719,0.2672651476638474,2.845589315674395,1.7104508526776257e-7
0.6454999999999452,0.9999999373955831,4.207011393983842e-14,0.25994210990442135,0.9999999373955831,0.26726515327509787,2.845589248285939,1.7083940445705265e-7
0.6555999999999441,0.9999999364580886,4.1965888229744674e-14,0.259942105629348,0.9999999364580886,0.26726515883749585,2.845589181442473,1.7066898054309946e-7
0.665699999999943,0.9999999355549534,4.227575321064103e-14,0.259942101599117,0.9999999355549534,0.26726516434998127,2.845589115162203,1.705243059195081e-7
0.6757999999999419,0.999999934687122,4.385649964933416e-14,0.25994209781962313,0.999999934687122,0.2672651698116142,2.84558904946311,1.703511516149217e-7
0.6858999999999408,0.9999999338555452,4.501583703237291e-14,0.2599420942963948,0.9999999338555452,0.26726517522162024,2.8455889843632773,1.70180597269895e-7
0.6959999999999397,0.999999933061067,4.6090118754980175e-14,0.2599420910345597,0.999999933061067,0.26726518057937554,2.8455889198807687,1.6997445564810341e-7
0.7060999999999386,0.9999999323044835,4.7472706917860846e-14,0.2599420880388539,0.9999999323044835,0.26726518588443776,2.8455888560338236,1.6969651664770556e-7
0.7161999999999374,0.9999999315865262,4.8219647675804e-14,0.2599420853136125,0.9999999315865262,0.26726519113655267,2.845588792840951,1.693353942808805e-7
0.7262999999999363,0.9999999309078823,4.9008987514954916e-14,0.2599420828627696,0.9999999309078823,0.26726519633567125,2.8455887303210714,1.6886652015391659e-7
0.7363999999999352,0.9999999302691405,4.937753493843705e-14,0.2599420806898405,0.9999999302691405,0.26726520148194854,2.8455886684935425,1.6824116418126136e-7
0.7464999999999341,0.9999999296708484,4.9618878342032324e-14,0.25994207879793463,0.9999999296708484,0.2672652065757681,2.845588607378395,1.6748553884876112e-7
0.756599999999933,0.9999999291135125,5.114475737453411e-14,0.2599420771897518,0.9999999291135125,0.26726521161775063,2.845588546996464,1.6654492547722104e-7
0.7666999999999319,0.99999992859752,5.207250239726638e-14,0.2599420758675608,0.99999992859752,0.26726521660874414,2.8455884873693713,1.654517985596855e-7
0.7767999999999308,0.9999999281232301,5.158814185297206e-14,0.25994207483322135,0.9999999281232301,0.2672652215498503,2.8455884285198594,1.641826366226495e-7
0.7868999999999297,0.9999999276909421,5.235956525122265e-14,0.2599420740881765,0.9999999276909421,0.2672652264424252,2.8455883704718503,1.6278988287853957e-7
0.7969999999999285,0.9999999273008346,5.217794783480417e-14,0.2599420736334354,0.9999999273008346,0.26726523128806456,2.845588313250484,1.61205718014483e-7
0.8070999999999274,0.9999999269531006,5.2654644424991737e-14,0.2599420734696114,0.9999999269531006,0.2672652360886424,2.8455882568825124,1.5950599662362053e-7
0.8171999999999263,0.9999999266478032,5.297131277452044e-14,0.2599420735968844,0.9999999266478032,0.267265240846274,2.845588201396154,1.5769726804698506e-7
0.8272999999999252,0.9999999263849656,5.3426765778390867e-14,0.25994207401502795,0.9999999263849656,0.2672652455633385,2.8455881468213935,1.5578785916201634e-7
0.8373999999999241,0.9999999261645565,5.323193464799522e-14,0.2599420747234076,0.9999999261645565,0.2672652502424705,2.8455880931900865,1.5378906367238652e-7
0.847499999999923,0.999999925986475,5.4396632055524197e-14,0.2599420757209806,0.999999925986475,0.2672652548865521,2.8455880405360343,1.5171520180331019e-7
0.8575999999999219,0.9999999258505371,5.5132181914392675e-14,0.25994207700629857,0.9999999258505371,0.2672652594987067,2.845587988895039,1.4958362864791826e-7
0.8676999999999208,0.9999999257565182,5.568057814949942e-14,0.25994207857752016,0.9999999257565182,0.267265264082296,2.8455879383050986,1.4741468811457469e-7
0.8777999999999196,0.9999999257041365,5.522548428759863e-14,0.25994208043241507,0.9999999257041365,0.2672652686409106,2.845587888806418,1.4523161037920564e-7
0.8878999999999185,0.9999999256930161,5.574421404076074e-14,0.2599420825683605,0.9999999256930161,0.2672652731783484,2.8455878404413895,1.4302248353909423e-7
0.8979999999999174,0.9999999257227591,5.6772877956960677e-14,0.25994208498236554,0.9999999257227591,0.2672652776986199,2.845587793254759,1.4076703609722096e-7
0.9080999999999163,0.9999999257928949,5.787881160674094e-14,0.25994208767106597,0.9999999257928949,0.267265282205919,2.845587747293539,1.3855505088080127e-7
0.9181999999999152,0.9999999259028988,5.842088558792938e-14,0.2599420906307381,0.9999999259028988,0.2672652867046149,2.845587702607014,1.3639019824858405e-7
0.9282999999999141,0.999999926052182,5.905372761974559e-14,0.25994209385730277,0.999999926052182,0.2672652911992309,2.845587659246683,1.3417530613066896e-7
0.938399999999913,0.9999999262401107,5.960297766406317e-14,0.2599420973463417,0.9999999262401107,0.2672652956944307,2.8455876172662125,1.320761758548585e-7
0.9484999999999119,0.9999999264659903,6.086841778220678e-14,0.2599421010931014,0.9999999264659903,0.26726530019499434,2.8455875767213192,1.2996896496654905e-7
0.9585999999999107,0.9999999267290824,6.088417937128929e-14,0.2599421050925085,0.9999999267290824,0.26726530470580395,2.845587537669652,1.279564222301392e-7
0.9686999999999096,0.9999999270286196,6.190604669512045e-14,0.25994210933918366,0.9999999270286196,0.26726530923182185,2.8455875001706836,1.2599256562420893e-7
0.9787999999999085,0.9999999273637651,6.23628210703886e-14,0.25994211382744276,0.9999999273637651,0.2672653137780617,2.8455874642854297,1.2412175468087064e-7
0.9888999999999074,0.9999999277336074,6.248675215496727e-14,0.2599421185513071,0.9999999277336074,0.2672653183495619,2.845587430076224,1.2231112718516468e-7
0.9989999999999063,0.9999999281372283,6.29852683138761e-14,0.2599421235045331,0.9999999281372283,0.2672653229513791,2.8455873976066046,1.206422180275432e-7
1.0090999999999053,0.9999999285736841,6.464653031640344e-14,0.25994212868061767,0.9999999285736841,0.2672653275885574,2.845587366941002,1.1899706006949978e-7
1.0191999999999042,0.9999999290419734,6.526378694199017e-14,0.2599421340728054,0.9999999290419734,0.26726533226609794,2.845587338144377,1.1756815843459747e-7
1.029299999999903,0.9999999295410325,6.588287993500655e-14,0.2599421396740984,0.9999999295410325,0.2672653369889303,2.8455873112818844,1.1612892535138005e-7
1.039399999999902,0.9999999300697922,6.628110739296048e-14,0.2599421454772858,0.9999999300697922,0.2672653417619022,2.8455872864186316,1.148827665633547e-7
1.0494999999999008,0.9999999306271586,6.711492662623761e-14,0.2599421514749507,0.9999999306271586,0.26726534658974815,2.8455872636192754,1.1378994188435757e-7
1.0595999999998997,0.99999993121199,6.8451510735687e-14,0.25994215765947803,0.99999993121199,0.2672653514770585,2.845587242947577,1.1274325695798603e-7
1.0696999999998986,0.9999999318231187,6.940932881617859e-14,0.2599421640230758,0.9999999318231187,0.2672653564282584,2.845587224466052,1.1192228534913257e-7
1.0797999999998975,0.9999999324593504,7.017600205366098e-14,0.2599421705577873,0.9999999324593504,0.2672653614475822,2.845587208235533,1.1123735610785318e-7
1.0898999999998964,0.9999999331194783,7.014907995846545e-14,0.25994217725550983,0.9999999331194783,0.26726536653905136,2.84558719431478,1.1063777953400149e-7
1.0999999999998953,0.9999999338022403,7.192069341336108e-14,0.2599421841079981,0.9999999338022403,0.2672653717064384,2.845587182759951,1.1027108283850338e-7
1.1100999999998942,0.9999999345064213,7.280427752635529e-14,0.2599421911069037,0.9999999345064213,0.2672653769532645,2.845587173624367,1.1009496525755171e-7
1.120199999999893,0.9999999352307004,7.334607368073703e-14,0.25994219824375264,0.9999999352307004,0.2672653822827409,2.845587166957767,1.0997318359132211e-7
1.130299999999892,0.9999999359738562,7.399135693248252e-14,0.25994220551001024,0.9999999359738562,0.2672653876977894,2.845587162806283,1.1009173313740296e-7
1.1403999999998908,0.9999999367345528,7.360502181710804e-14,0.25994221289704234,0.9999999367345528,0.26726539320097026,2.845587161211574,1.1045410777903461e-7
1.1504999999998897,0.9999999375115111,7.451776419227854e-14,0.25994222039617254,0.9999999375115111,0.2672653987946539,2.8455871622107636,1.1091445661669276e-7
1.1605999999998886,0.9999999383034156,7.44730747339814e-14,0.25994222799867434,0.9999999383034156,0.26726540448017644,2.8455871658358514,1.1154843984884125e-7
1.1706999999998875,0.9999999391089334,7.540369966873434e-14,0.2599422356957872,0.9999999391089334,0.267265410259441,2.8455871721133486,1.1243524369967049e-7
1.1807999999998864,0.9999999399267702,7.577184729266537e-14,0.259942243478749,0.9999999399267702,0.26726541613323906,2.8455871810640474,1.1357639214230558e-7
1.1908999999998853,0.9999999407556047,7.582638266194139e-14,0.2599422513387899,0.9999999407556047,0.2672654221020789,2.845587192702549,1.148012436644729e-7
1.2009999999998842,0.999999941594118,7.677377884904996e-14,0.2599422592671559,0.999999941594118,0.26726542816608667,2.8455872070370227,1.1624337940875987e-7
1.211099999999883,0.9999999424409965,7.682185643913611e-14,0.25994226725512154,0.9999999424409965,0.26726543432462674,2.8455872240689244,1.179457674166035e-7
1.221199999999882,0.9999999432949404,7.674941140522334e-14,0.2599422752940065,0.9999999432949404,0.26726544057705853,2.8455872437927807,1.199139885673214e-7
1.2312999999998808,0.9999999441546834,7.757119599438589e-14,0.2599422833751929,0.9999999441546834,0.26726544692126847,2.845587266196028,1.220261682207428e-7
1.2413999999998797,0.9999999450189332,7.806664928215745e-14,0.2599422914901237,0.9999999450189332,0.2672654533555131,2.84558729125872,1.2431775386763463e-7
1.2514999999998786,0.9999999458864229,7.948427072773656e-14,0.2599422996303281,0.9999999458864229,0.26726545987711353,2.8455873189535197,1.2687901943475043e-7
1.2615999999998775,0.9999999467558723,7.979502339916164e-14,0.2599423077874223,0.9999999467558723,0.2672654664826602,2.8455873492455175,1.297115469975607e-7
